10.0015	506
10.0217	588
10.0419	677
10.0621	942
10.0823	1499
10.1025	4678
10.1227	14090
10.1429	10849
10.1631	5362
10.1833	2807
10.2035	1508
10.2236	1334
10.2438	1555
10.264	1295
10.2842	899
10.3044	704
10.3246	764
10.3448	784
10.365	758
10.3852	742
10.4054	774
10.4256	723
10.4458	626
10.466	411
10.4862	354
10.5064	277
10.5266	293
10.5468	284
10.567	299
10.5872	255
10.6074	308
10.6276	254
10.6478	288
10.668	236
10.6882	256
10.7084	249
10.7286	261
10.7488	226
10.7689	237
10.7891	246
10.8093	247
10.8295	222
10.8497	233
10.8699	212
10.8901	225
10.9103	247
10.9305	216
10.9507	250
10.9709	218
10.9911	193
11.0113	232
11.0315	189
11.0517	210
11.0719	190
11.0921	186
11.1123	205
11.1325	188
11.1527	187
11.1729	196
11.1931	202
11.2133	193
11.2335	235
11.2537	246
11.2739	213
11.2941	198
11.3143	193
11.3344	235
11.3546	246
11.3748	213
11.395	198
11.4152	194
11.4354	202
11.4556	183
11.4758	181
11.496	191
11.5162	167
11.5364	205
11.5566	172
11.5768	217
11.597	169
11.6172	184
11.6374	192
11.6576	208
11.6778	198
11.698	182
11.7182	191
11.7384	195
11.7586	217
11.7788	174
11.799	162
11.8192	186
11.8394	180
11.8596	165
11.8797	183
11.8999	168
11.9201	206
11.9403	219
11.9605	186
11.9807	184
12.0009	192
12.0211	154
12.0413	174
12.0615	189
12.0817	192
12.1019	197
12.1221	176
12.1423	198
12.1625	185
12.1827	189
12.2029	194
12.2231	184
12.2433	195
12.2635	178
12.2837	188
12.3039	190
12.3241	180
12.3443	191
12.3645	181
12.3847	192
12.4049	211
12.425	193
12.4452	194
12.4654	209
12.4856	211
12.5058	191
12.526	217
12.5462	257
12.5664	237
12.5866	217
12.6068	208
12.627	261
12.6472	255
12.6674	260
12.6876	244
12.7078	266
12.728	272
12.7482	243
12.7684	210
12.7886	245
12.8088	212
12.829	231
12.8492	192
12.8694	207
12.8896	257
12.9098	203
12.93	204
12.9502	179
12.9704	218
12.9905	197
13.0107	196
13.0309	208
13.0511	176
13.0713	177
13.0915	147
13.1117	183
13.1319	179
13.1521	169
13.1723	195
13.1925	158
13.2127	168
13.2329	168
13.2531	186
13.2733	167
13.2935	181
13.3137	159
13.3339	186
13.3541	173
13.3743	149
13.3945	162
13.4147	161
13.4349	166
13.4551	166
13.4753	158
13.4955	159
13.5157	129
13.5358	148
13.556	157
13.5762	154
13.5964	136
13.6166	137
13.6368	165
13.657	156
13.6772	146
13.6974	167
13.7176	147
13.7378	173
13.758	151
13.7782	153
13.7984	186
13.8186	217
13.8388	182
13.859	225
13.8792	171
13.8994	178
13.9196	167
13.9398	156
13.96	160
13.9802	160
14.0004	138
14.0206	169
14.0408	156
14.061	155
14.0811	155
14.1013	157
14.1215	163
14.1417	158
14.1619	151
14.1821	159
14.2023	158
14.2225	148
14.2427	148
14.2629	146
14.2831	157
14.3033	153
14.3235	135
14.3437	152
14.3639	124
14.3841	135
14.4043	146
14.4245	142
14.4447	139
14.4649	175
14.4851	174
14.5053	171
14.5255	191
14.5457	199
14.5659	214
14.5861	188
14.6063	237
14.6265	201
14.6466	171
14.6668	171
14.687	171
14.7072	172
14.7274	163
14.7476	153
14.7678	137
14.788	151
14.8082	145
14.8284	161
14.8486	188
14.8688	396
14.889	409
14.9092	369
14.9294	322
14.9496	283
14.9698	526
14.99	450
15.0102	384
15.0304	248
15.0506	189
15.0708	152
15.091	178
15.1112	144
15.1314	145
15.1516	127
15.1718	148
15.1919	156
15.2121	131
15.2323	165
15.2525	141
15.2727	155
15.2929	162
15.3131	143
15.3333	154
15.3535	164
15.3737	152
15.3939	186
15.4141	140
15.4343	167
15.4545	164
15.4747	157
15.4949	177
15.5151	153
15.5353	153
15.5555	192
15.5757	156
15.5959	154
15.6161	136
15.6363	153
15.6565	139
15.6767	147
15.6969	143
15.7171	145
15.7372	153
15.7574	129
15.7776	154
15.7978	131
15.818	154
15.8382	156
15.8584	135
15.8786	134
15.8988	142
15.919	155
15.9392	149
15.9594	136
15.9796	146
15.9998	124
16.02	138
16.0402	156
16.0604	135
16.0806	134
16.1008	142
16.121	155
16.1412	149
16.1614	135
16.1816	134
16.2018	142
16.222	155
16.2422	134
16.2624	142
16.2826	155
16.3027	149
16.3229	136
16.3431	146
16.3633	124
16.3835	138
16.4037	156
16.4239	135
16.4441	323
16.4643	258
16.4845	232
16.5047	215
16.5249	237
16.5451	177
16.5653	186
16.5855	183
16.6057	179
16.6259	167
16.6461	184
16.6663	159
16.6865	158
16.7067	156
16.7269	148
16.7471	168
16.7673	142
16.7875	154
16.8077	136
16.8279	153
16.848	139
16.8682	147
16.8884	143
16.9086	145
16.9288	153
16.949	129
16.9692	154
16.9894	131
17.0096	154
17.0298	156
17.05	135
17.0702	134
17.0904	142
17.1106	155
17.1308	149
17.151	136
17.1712	146
17.1914	124
17.2116	138
17.2318	138
17.252	144
17.2722	141
17.2924	113
17.3126	153
17.3328	134
17.353	142
17.3732	159
17.3933	145
17.4135	128
17.4337	115
17.4539	124
17.4741	116
17.4943	118
17.5145	122
17.5347	136
17.5549	107
17.5751	99
17.5953	107
17.6155	112
17.6357	98
17.6559	100
17.6761	94
17.6963	106
17.7165	122
17.7367	118
17.7569	115
17.7771	153
17.7973	319
17.8175	395
17.8377	165
17.8579	145
17.8781	173
17.8983	281
17.9185	240
17.9387	191
17.9588	135
17.979	108
17.9992	96
18.0194	104
18.0396	114
18.0598	135
18.08	99
18.1002	129
18.1204	129
18.1406	108
18.1608	105
18.181	102
18.2012	128
18.2214	137
18.2416	125
18.2618	132
18.282	111
18.3022	121
18.3224	134
18.3426	102
18.3628	130
18.383	142
18.4032	125
18.4234	139
18.4436	137
18.4638	140
18.484	123
18.5041	154
18.5243	137
18.5445	133
18.5647	131
18.5849	185
18.6051	131
18.6253	182
18.6455	154
18.6657	169
18.6859	191
18.7061	187
18.7263	170
18.7465	189
18.7667	201
18.7869	186
18.8071	184
18.8273	232
18.8475	230
18.8677	245
18.8879	246
18.9081	266
18.9283	284
18.9485	303
18.9687	362
18.9889	300
19.0091	311
19.0293	318
19.0494	324
19.0696	339
19.0898	364
19.11	359
19.1302	366
19.1504	417
19.1706	450
19.1908	436
19.211	488
19.2312	509
19.2514	554
19.2716	570
19.2918	611
19.312	598
19.3322	656
19.3524	579
19.3726	596
19.3928	645
19.413	653
19.4332	691
19.4534	776
19.4736	808
19.4938	873
19.514	981
19.5342	1222
19.5544	1652
19.5746	2306
19.5947	3245
19.6149	5022
19.6351	15959
19.6553	44623
19.6755	33970
19.6957	28767
19.7159	11637
19.7361	4902
19.7563	3671
19.7765	3091
19.7967	2565
19.8169	2389
19.8371	2034
19.8573	1944
19.8775	1724
19.8977	1710
19.9179	1608
19.9381	1616
19.9583	1442
19.9785	1099
19.9987	938
20.0189	731
20.0391	578
20.0593	569
20.0795	484
20.0997	510
20.1199	479
20.1401	506
20.1602	434
20.1804	441
20.2006	432
20.2208	440
20.241	418
20.2612	431
20.2814	375
20.3016	369
20.3218	356
20.342	390
20.3622	344
20.3824	372
20.4026	318
20.4228	349
20.443	340
20.4632	368
20.4834	354
20.5036	358
20.5238	362
20.544	355
20.5642	364
20.5844	446
20.6046	475
20.6248	387
20.645	384
20.6652	358
20.6854	256
20.7055	231
20.7257	217
20.7459	220
20.7661	189
20.7863	184
20.8065	192
20.8267	171
20.8469	176
20.8671	178
20.8873	174
20.9075	154
20.9277	159
20.9479	163
20.9681	167
20.9883	166
21.0085	141
21.0287	142
21.0489	128
21.0691	119
21.0893	134
21.1095	116
21.1297	106
21.1499	117
21.1701	107
21.1903	115
21.2105	100
21.2307	114
21.2508	111
21.271	96
21.2912	107
21.3114	115
21.3316	100
21.3518	114
21.372	111
21.3922	96
21.4124	107
21.4326	121
21.4528	99
21.473	102
21.4932	93
21.5134	93
21.5336	103
21.5538	110
21.574	77
21.5942	83
21.6144	98
21.6346	96
21.6548	107
21.675	109
21.6952	103
21.7154	98
21.7356	114
21.7558	110
21.776	123
21.7962	98
21.8163	102
21.8365	81
21.8567	72
21.8769	79
21.8971	89
21.9173	93
21.9375	79
21.9577	79
21.9779	73
21.9981	73
22.0183	89
22.0385	75
22.0587	86
22.0789	70
22.0991	68
22.1193	80
22.1395	80
22.1597	82
22.1799	82
22.2001	72
22.2203	90
22.2405	61
22.2607	70
22.2809	76
22.3011	75
22.3213	77
22.3415	72
22.3616	73
22.3818	77
22.402	92
22.4222	67
22.4424	84
22.4626	66
22.4828	61
22.503	71
22.5232	71
22.5434	96
22.5636	79
22.5838	64
22.604	65
22.6242	38
22.6444	77
22.6646	84
22.6848	76
22.705	78
22.7252	61
22.7454	66
22.7656	84
22.7858	68
22.806	76
22.8262	90
22.8464	64
22.8666	71
22.8868	96
22.9069	85
22.9271	69
22.9473	63
22.9675	81
22.9877	69
23.0079	81
23.0281	86
23.0483	87
23.0685	82
23.0887	95
23.1089	99
23.1291	81
23.1493	96
23.1695	84
23.1897	78
23.2099	83
23.2301	89
23.2503	88
23.2705	98
23.2907	98
23.3109	120
23.3311	152
23.3513	174
23.3715	234
23.3917	240
23.4119	247
23.4321	272
23.4523	232
23.4724	284
23.4926	257
23.5128	203
23.533	217
23.5532	162
23.5734	171
23.5936	118
23.6138	118
23.634	92
23.6542	108
23.6744	108
23.6946	108
23.7148	101
23.735	73
23.7552	77
23.7754	86
23.7956	68
23.8158	73
23.836	88
23.8562	93
23.8764	89
23.8966	80
23.9168	95
23.937	69
23.9572	70
23.9774	79
23.9976	97
24.0177	88
24.0379	96
24.0581	86
24.0783	119
24.0985	82
24.1187	115
24.1389	100
24.1591	95
24.1793	75
24.1995	84
24.2197	98
24.2399	82
24.2601	76
24.2803	87
24.3005	96
24.3207	87
24.3409	90
24.3611	81
24.3813	71
24.4015	73
24.4217	88
24.4419	96
24.4621	167
24.4823	134
24.5025	106
24.5227	155
24.5429	154
24.563	159
24.5832	168
24.6034	148
24.6236	146
24.6438	153
24.664	160
24.6842	174
24.7044	191
24.7246	144
24.7448	162
24.765	135
24.7852	161
24.8054	169
24.8256	167
24.8458	158
24.866	154
24.8862	164
24.9064	171
24.9266	162
24.9468	176
24.967	150
24.9872	170
25.0074	124
25.0276	116
25.0478	108
25.068	112
25.0882	111
25.1084	100
25.1285	93
25.1487	80
25.1689	92
25.1891	82
25.2093	76
25.2295	73
25.2497	95
25.2699	76
25.2901	81
25.3103	68
25.3305	78
25.3507	67
25.3709	87
25.3911	85
25.4113	64
25.4315	87
25.4517	84
25.4719	96
25.4921	92
25.5123	94
25.5325	84
25.5527	78
25.5729	68
25.5931	68
25.6133	70
25.6335	70
25.6537	53
25.6738	58
25.694	67
25.7142	53
25.7344	51
25.7546	77
25.7748	61
25.795	55
25.8152	56
25.8354	68
25.8556	65
25.8758	67
25.896	59
25.9162	69
25.9364	61
25.9566	48
25.9768	60
25.997	74
26.0172	73
26.0374	67
26.0576	68
26.0778	71
26.098	78
26.1182	79
26.1384	67
26.1586	82
26.1788	59
26.199	73
26.2191	79
26.2393	70
26.2595	83
26.2797	86
26.2999	93
26.3201	87
26.3403	83
26.3605	90
26.3807	92
26.4009	81
26.4211	81
26.4413	63
26.4615	77
26.4817	66
26.5019	69
26.5221	97
26.5423	74
26.5625	66
26.5827	86
26.6029	85
26.6231	77
26.6433	65
26.6635	84
26.6837	65
26.7039	71
26.7241	65
26.7443	76
26.7645	70
26.7846	71
26.8048	68
26.825	75
26.8452	65
26.8654	68
26.8856	57
26.9058	60
26.926	70
26.9462	47
26.9664	43
26.9866	74
27.0068	53
27.027	77
27.0472	50
27.0674	68
27.0876	71
27.1078	88
27.128	91
27.1482	75
27.1684	73
27.1886	80
27.2088	41
27.229	72
27.2492	79
27.2694	64
27.2896	77
27.3098	78
27.3299	68
27.3501	71
27.3703	55
27.3905	86
27.4107	81
27.4309	89
27.4511	117
27.4713	91
27.4915	84
27.5117	80
27.5319	77
27.5521	85
27.5723	75
27.5925	68
27.6127	65
27.6329	56
27.6531	67
27.6733	72
27.6935	79
27.7137	70
27.7339	90
27.7541	81
27.7743	91
27.7945	57
27.8147	80
27.8349	70
27.8551	101
27.8752	94
27.8954	69
27.9156	81
27.9358	97
27.956	78
27.9762	74
27.9964	81
28.0166	100
28.0368	149
28.057	157
28.0772	190
28.0974	280
28.1176	370
28.1378	484
28.158	493
28.1782	497
28.1984	538
28.2186	614
28.2388	684
28.259	565
28.2792	514
28.2994	416
28.3196	390
28.3398	297
28.36	232
28.3802	216
28.4004	146
28.4206	162
28.4407	146
28.4609	152
28.4811	132
28.5013	115
28.5215	131
28.5417	128
28.5619	128
28.5821	136
28.6023	116
28.6225	144
28.6427	121
28.6629	125
28.6831	122
28.7033	130
28.7235	110
28.7437	105
28.7639	91
28.7841	121
28.8043	127
28.8245	130
28.8447	108
28.8649	123
28.8851	140
28.9053	127
28.9255	148
28.9457	139
28.9659	130
28.986	164
29.0062	147
29.0264	178
29.0466	168
29.0668	166
29.087	171
29.1072	173
29.1274	181
29.1476	240
29.1678	277
29.188	306
29.2082	375
29.2284	466
29.2486	601
29.2688	1014
29.289	2853
29.3092	9267
29.3294	8681
29.3496	4430
29.3698	5986
29.39	11215
29.4102	14064
29.4304	9484
29.4506	4639
29.4708	4982
29.491	6098
29.5112	3086
29.5313	1202
29.5515	645
29.5717	499
29.5919	395
29.6121	398
29.6323	341
29.6525	348
29.6727	369
29.6929	304
29.7131	295
29.7333	277
29.7535	248
29.7737	257
29.7939	195
29.8141	181
29.8343	168
29.8545	132
29.8747	120
29.8949	122
29.9151	148
29.9353	139
29.9555	141
29.9757	128
29.9959	124
30.0161	133
30.0363	127
30.0565	112
30.0766	146
30.0968	129
30.117	114
30.1372	129
30.1574	123
30.1776	115
30.1978	95
30.218	132
30.2382	135
30.2584	138
30.2786	134
30.2988	169
30.319	199
30.3392	260
30.3594	305
30.3796	291
30.3998	326
30.42	360
30.4402	415
30.4604	387
30.4806	343
30.5008	283
30.521	281
30.5412	196
30.5614	206
30.5816	189
30.6018	137
30.622	146
30.6421	110
30.6623	122
30.6825	118
30.7027	125
30.7229	91
30.7431	103
30.7633	113
30.7835	109
30.8037	124
30.8239	118
30.8441	94
30.8643	115
30.8845	113
30.9047	141
30.9249	112
30.9451	130
30.9653	113
30.9855	123
31.0057	127
31.0259	125
31.0461	123
31.0663	123
31.0865	100
31.1067	132
31.1269	122
31.1471	129
31.1673	139
31.1874	131
31.2076	123
31.2278	150
31.248	156
31.2682	145
31.2884	165
31.3086	188
31.3288	192
31.349	180
31.3692	193
31.3894	203
31.4096	177
31.4298	159
31.45	154
31.4702	145
31.4904	139
31.5106	136
31.5308	144
31.551	125
31.5712	135
31.5914	144
31.6116	109
31.6318	123
31.652	121
31.6722	127
31.6924	98
31.7126	120
31.7327	103
31.7529	127
31.7731	104
31.7933	106
31.8135	119
31.8337	103
31.8539	124
31.8741	125
31.8943	120
31.9145	107
31.9347	118
31.9549	107
31.9751	130
31.9953	104
32.0155	100
32.0357	128
32.0559	131
32.0761	123
32.0963	125
32.1165	156
32.1367	141
32.1569	139
32.1771	121
32.1973	126
32.2175	114
32.2377	144
32.2579	125
32.2781	135
32.2982	144
32.3184	109
32.3386	123
32.3588	121
32.379	127
32.3992	98
32.4194	120
32.4396	103
32.4598	127
32.48	104
32.5002	106
32.5204	119
32.5406	103
32.5608	124
32.581	125
32.6012	120
32.6214	107
32.6416	118
32.6618	107
32.682	130
32.7022	104
32.7224	100
32.7426	128
32.7628	131
32.783	123
32.8032	125
32.8234	156
32.8435	141
32.8637	139
32.8839	121
32.9041	126
32.9243	114
32.9445	80
32.9647	99
32.9849	100
33.0051	89
33.0253	106
33.0455	87
33.0657	90
33.0859	124
33.1061	85
33.1263	87
33.1465	94
33.1667	106
33.1869	113
33.2071	91
33.2273	94
33.2475	104
33.2677	80
33.2879	90
33.3081	77
33.3283	97
33.3485	84
33.3687	102
33.3888	80
33.409	87
33.4292	72
33.4494	90
33.4696	65
33.4898	83
33.51	81
33.5302	70
33.5504	80
33.5706	68
33.5908	82
33.611	71
33.6312	78
33.6514	80
33.6716	80
33.6918	91
33.712	69
33.7322	83
33.7524	74
33.7726	95
33.7928	100
33.813	94
33.8332	89
33.8534	103
33.8736	106
33.8938	88
33.914	89
33.9342	106
33.9543	95
33.9745	92
33.9947	109
34.0149	106
34.0351	80
34.0553	91
34.0755	69
34.0957	83
34.1159	74
34.1361	95
34.1563	100
34.1765	94
34.1967	89
34.2169	103
34.2371	106
34.2573	80
34.2775	91
34.2977	69
34.3179	83
34.3381	74
34.3583	95
34.3785	100
34.3987	94
34.4189	89
34.4391	103
34.4593	106
34.4795	88
34.4996	89
34.5198	106
34.54	95
34.5602	92
34.5804	80
34.6006	91
34.6208	69
34.641	83
34.6612	74
34.6814	95
34.7016	100
34.7218	94
34.742	89
34.7622	103
34.7824	80
34.8026	91
34.8228	69
34.843	83
34.8632	74
34.8834	95
34.9036	100
34.9238	94
34.944	89
34.9642	103
34.9844	106
35.0046	88
35.0248	89
35.0449	106
35.0651	95
35.0853	92
35.1055	109
35.1257	176
35.1459	145
35.1661	99
35.1863	114
35.2065	103
35.2267	101
35.2469	88
35.2671	88
35.2873	81
35.3075	77
35.3277	114
35.3479	178
35.3681	167
35.3883	141
35.4085	131
35.4287	137
35.4489	145
35.4691	131
35.4893	108
35.5095	96
35.5297	95
35.5499	90
35.5701	102
35.5903	87
35.6104	77
35.6306	92
35.6508	78
35.671	86
35.6912	81
35.7114	96
35.7316	79
35.7518	99
35.772	99
35.7922	72
35.8124	73
35.8326	102
35.8528	106
35.873	97
35.8932	103
35.9134	92
35.9336	73
35.9538	79
35.974	88
35.9942	85
36.0144	83
36.0346	85
36.0548	100
36.075	85
36.0952	74
36.1154	94
36.1356	71
36.1557	89
36.1759	96
36.1961	88
36.2163	102
36.2365	98
36.2567	110
36.2769	77
36.2971	105
36.3173	107
36.3375	86
36.3577	100
36.3779	89
36.3981	89
36.4183	99
36.4385	92
36.4587	111
36.4789	110
36.4991	100
36.5193	124
36.5395	104
36.5597	103
36.5799	105
36.6001	98
36.6203	119
36.6405	114
36.6607	106
36.6809	117
36.701	113
36.7212	109
36.7414	117
36.7616	108
36.7818	122
36.802	113
36.8222	139
36.8424	125
36.8626	120
36.8828	137
36.903	130
36.9232	136
36.9434	145
36.9636	149
36.9838	152
37.004	155
37.0242	148
37.0444	166
37.0646	205
37.0848	214
37.105	194
37.1252	193
37.1454	238
37.1656	229
37.1858	249
37.206	272
37.2262	271
37.2464	304
37.2665	346
37.2867	371
37.3069	432
37.3271	515
37.3473	547
37.3675	610
37.3877	506
37.4079	415
37.4281	432
37.4483	393
37.4685	364
37.4887	312
37.5089	276
37.5291	271
37.5493	254
37.5695	239
37.5897	226
37.6099	225
37.6301	218
37.6503	209
37.6705	187
37.6907	236
37.7109	218
37.7311	230
37.7513	212
37.7715	244
37.7917	224
37.8118	223
37.832	241
37.8522	218
37.8724	252
37.8926	236
37.9128	262
37.933	289
37.9532	298
37.9734	323
37.9936	416
38.0138	427
38.034	536
38.0542	594
38.0744	667
38.0946	739
38.1148	882
38.135	790
38.1552	660
38.1754	677
38.1956	590
38.2158	584
38.236	506
38.2562	465
38.2764	355
38.2966	354
38.3168	334
38.337	286
38.3571	291
38.3773	284
38.3975	308
38.4177	279
38.4379	267
38.4581	266
38.4783	275
38.4985	290
38.5187	323
38.5389	306
38.5591	311
38.5793	301
38.5995	301
38.6197	327
38.6399	301
38.6601	301
38.6803	327
38.7005	325
38.7207	346
38.7409	377
38.7611	394
38.7813	442
38.8015	424
38.8217	471
38.8419	480
38.8621	564
38.8823	542
38.9025	553
38.9226	633
38.9428	591
38.963	709
38.9832	720
39.0034	726
39.0236	835
39.0438	898
39.064	1065
39.0842	1225
39.1044	1298
39.1246	1407
39.1448	1720
39.165	2094
39.1852	3042
39.2054	5182
39.2256	17623
39.2458	20669
39.266	36119
39.2862	53658
39.3064	33694
39.3266	15353
39.3468	12866
39.367	10688
39.3872	8394
39.4074	8141
39.4276	8246
39.4478	6191
39.4679	4063
39.4881	2513
39.5083	1709
39.5285	1265
39.5487	1084
39.5689	940
39.5891	848
39.6093	750
39.6295	666
39.6497	638
39.6699	590
39.6901	583
39.7103	527
39.7305	494
39.7507	483
39.7709	450
39.7911	395
39.8113	386
39.8315	388
39.8517	393
39.8719	334
39.8921	344
39.9123	342
39.9325	335
39.9527	303
39.9729	323
39.9931	298
40.0132	302
40.0334	302
40.0536	271
40.0738	298
40.094	281
40.1142	277
40.1344	494
40.1546	483
40.1748	450
40.195	395
40.2152	386
40.2354	388
40.2556	393
40.2758	334
40.296	344
40.3162	342
40.3364	335
40.3566	303
40.3768	323
40.397	298
40.4172	302
40.4374	302
40.4576	271
40.4778	298
40.498	281
40.5182	277
40.5384	248
40.5585	281
40.5787	262
40.5989	227
40.6191	247
40.6393	242
40.6595	238
40.6797	267
40.6999	238
40.7201	254
40.7403	216
40.7605	251
40.7807	215
40.8009	232
40.8211	236
40.8413	209
40.8615	218
40.8817	213
40.9019	234
40.9221	243
40.9423	239
40.9625	221
40.9827	217
41.0029	237
41.0231	213
41.0433	250
41.0635	190
41.0837	187
41.1039	202
41.124	193
41.1442	173
41.1644	167
41.1846	195
41.2048	141
41.225	182
41.2452	165
41.2654	177
41.2856	176
41.3058	178
41.326	172
41.3462	175
41.3664	172
41.3866	183
41.4068	155
41.427	140
41.4472	157
41.4674	147
41.4876	163
41.5078	162
41.528	150
41.5482	175
41.5684	144
41.5886	149
41.6088	187
41.629	168
41.6492	167
41.6693	181
41.6895	171
41.7097	174
41.7299	188
41.7501	142
41.7703	146
41.7905	168
41.8107	159
41.8309	167
41.8511	173
41.8713	165
41.8915	156
41.9117	145
41.9319	173
41.9521	152
41.9723	176
41.9925	170
42.0127	160
42.0329	179
42.0531	148
42.0733	167
42.0935	175
42.1137	152
42.1339	148
42.1541	119
42.1743	138
42.1945	120
42.2146	114
42.2348	114
42.255	109
42.2752	118
42.2954	113
42.3156	118
42.3358	113
42.356	121
42.3762	116
42.3964	103
42.4166	99
42.4368	87
42.457	106
42.4772	90
42.4974	99
42.5176	111
42.5378	101
42.558	113
42.5782	110
42.5984	113
42.6186	144
42.6388	153
42.659	152
42.6792	192
42.6994	219
42.7196	253
42.7398	335
42.76	386
42.7801	418
42.8003	522
42.8205	534
42.8407	423
42.8609	388
42.8811	348
42.9013	326
42.9215	324
42.9417	265
42.9619	218
42.9821	175
43.0023	141
43.0225	129
43.0427	145
43.0629	119
43.0831	110
43.1033	87
43.1235	93
43.1437	112
43.1639	114
43.1841	101
43.2043	86
43.2245	96
43.2447	99
43.2649	94
43.2851	101
43.3053	68
43.3254	105
43.3456	97
43.3658	69
43.386	96
43.4062	92
43.4264	88
43.4466	82
43.4668	98
43.487	96
43.5072	93
43.5274	103
43.5476	104
43.5678	94
43.588	114
43.6082	139
43.6284	117
43.6486	145
43.6688	158
43.689	169
43.7092	155
43.7294	148
43.7496	135
43.7698	125
43.79	118
43.8102	104
43.8304	129
43.8506	105
43.8707	100
43.8909	89
43.9111	108
43.9313	90
43.9515	82
43.9717	97
43.9919	101
44.0121	80
44.0323	76
44.0525	91
44.0727	96
44.0929	112
44.1131	99
44.1333	107
44.1535	107
44.1737	131
44.1939	169
44.2141	339
44.2343	472
44.2545	359
44.2747	286
44.2949	361
44.3151	564
44.3353	626
44.3555	420
44.3757	273
44.3959	423
44.4161	567
44.4362	557
44.4564	402
44.4766	311
44.4968	345
44.517	345
44.5372	255
44.5574	154
44.5776	147
44.5978	106
44.618	110
44.6382	111
44.6584	105
44.6786	92
44.6988	100
44.719	94
44.7392	83
44.7594	70
44.7796	86
44.7998	76
44.82	86
44.8402	108
44.8604	96
44.8806	114
44.9008	75
44.921	94
44.9412	100
44.9614	102
44.9815	95
45.0017	114
45.0219	72
45.0421	87
45.0623	103
45.0825	98
45.1027	89
45.1229	81
45.1431	96
45.1633	90
45.1835	92
45.2037	93
45.2239	96
45.2441	94
45.2643	116
45.2845	91
45.3047	93
45.3249	97
45.3451	99
45.3653	108
45.3855	93
45.4057	96
45.4259	80
45.4461	108
45.4663	114
45.4865	75
45.5067	93
45.5268	98
45.547	100
45.5672	91
45.5874	104
45.6076	102
45.6278	85
45.648	109
45.6682	96
45.6884	104
45.7086	119
45.7288	92
45.749	99
45.7692	101
45.7894	122
45.8096	101
45.8298	112
45.85	114
45.8702	94
45.8904	113
45.9106	127
45.9308	106
45.951	112
45.9712	116
45.9914	108
46.0116	114
46.0318	111
46.052	107
46.0722	114
46.0923	120
46.1125	94
46.1327	133
46.1529	116
46.1731	126
46.1933	117
46.2135	132
46.2337	127
46.2539	161
46.2741	160
46.2943	132
46.3145	145
46.3347	133
46.3549	168
46.3751	145
46.3953	155
46.4155	148
46.4357	160
46.4559	143
46.4761	176
46.4963	163
46.5165	144
46.5367	134
46.5569	149
46.5771	156
46.5973	134
46.6175	128
46.6376	151
46.6578	164
46.678	170
46.6982	157
46.7184	145
46.7386	162
46.7588	172
46.779	193
46.7992	144
46.8194	190
46.8396	165
46.8598	184
46.88	197
46.9002	201
46.9204	226
46.9406	241
46.9608	225
46.981	224
47.0012	196
47.0214	221
47.0416	239
47.0618	233
47.082	258
47.1022	276
47.1224	254
47.1426	292
47.1628	281
47.1829	270
47.2031	342
47.2233	319
47.2435	318
47.2637	280
47.2839	327
47.3041	310
47.3243	270
47.3445	282
47.3647	275
47.3849	251
47.4051	244
47.4253	268
47.4455	271
47.4657	248
47.4859	134
47.5061	128
47.5263	151
47.5465	164
47.5667	170
47.5869	157
47.6071	145
47.6273	162
47.6475	172
47.6677	193
47.6879	144
47.7081	190
47.7283	165
47.7484	184
47.7686	197
47.7888	201
47.809	226
47.8292	241
47.8494	225
47.8696	224
47.8898	196
47.91	221
47.9302	239
47.9504	233
47.9706	258
47.9908	276
48.011	254
48.0312	292
48.0514	281
48.0716	270
48.0918	342
48.112	319
48.1322	318
48.1524	509
48.1726	319
48.1928	318
48.213	509
48.2332	491
48.2534	435
48.2736	470
48.2937	455
48.3139	464
48.3341	477
48.3543	463
48.3745	448
48.3947	451
48.4149	482
48.4351	488
48.4553	544
48.4755	569
48.4957	545
48.5159	515
48.5361	536
48.5563	500
48.5765	522
48.5967	542
48.6169	533
48.6371	550
48.6573	515
48.6775	588
48.6977	561
48.7179	506
48.7381	582
48.7583	552
48.7785	611
48.7987	635
48.8189	656
48.839	643
48.8592	676
48.8794	743
48.8996	738
48.9198	821
48.94	885
48.9602	918
48.9804	1027
49.0006	1119
49.0208	1090
49.041	1211
49.0612	1288
49.0814	1390
49.1016	1475
49.1218	1561
49.142	1757
49.1622	1928
49.1824	2230
49.2026	2452
49.2228	2567
49.243	2795
49.2632	3033
49.2834	3352
49.3036	3779
49.3238	4460
49.344	5563
49.3642	7877
49.3844	14899
49.4045	37649
49.4247	49778
49.4449	75105
49.4651	79761
49.4853	59300
49.5055	38579
49.5257	26384
49.5459	27762
49.5661	12320
49.5863	6689
49.6065	4626
49.6267	3620
49.6469	3171
49.6671	2695
49.6873	2517
49.7075	2285
49.7277	2018
49.7479	1799
49.7681	1496
49.7883	1451
49.8085	1419
49.8287	1330
49.8489	1241
49.8691	1054
49.8893	985
49.9095	960
49.9297	883
49.9498	836
49.97	865
49.9902	822
50.0104	729
50.0306	749
50.0508	768
50.071	721
50.0912	703
50.1114	661
50.1316	692
50.1518	657
50.172	617
50.1922	603
50.2124	630
50.2326	609
50.2528	583
50.273	589
50.2932	570
50.3134	556
50.3336	547
50.3538	553
50.374	528
50.3942	575
50.4144	495
50.4346	489
50.4548	477
50.475	475
50.4951	473
50.5153	446
50.5355	498
50.5557	442
50.5759	464
50.5961	458
50.6163	410
50.6365	429
50.6567	476
50.6769	415
50.6971	421
50.7173	388
50.7375	400
50.7577	393
50.7779	354
50.7981	375
50.8183	381
50.8385	367
50.8587	380
50.8789	351
50.8991	364
50.9193	374
50.9395	344
50.9597	349
50.9799	367
51.0001	325
51.0203	322
51.0404	335
51.0606	333
51.0808	322
51.101	335
51.1212	333
51.1414	342
51.1616	331
51.1818	310
51.202	334
51.2222	296
51.2424	304
51.2626	327
51.2828	314
51.303	286
51.3232	302
51.3434	319
51.3636	299
51.3838	316
51.404	284
51.4242	278
51.4444	281
51.4646	249
51.4848	310
51.505	273
51.5252	323
51.5454	279
51.5656	284
51.5858	285
51.6059	250
51.6261	284
51.6463	278
51.6665	293
51.6867	251
51.7069	302
51.7271	302
51.7473	287
51.7675	317
51.7877	322
51.8079	328
51.8281	308
51.8483	258
51.8685	300
51.8887	278
51.9089	274
51.9291	240
51.9493	215
51.9695	240
51.9897	219
52.0099	240
52.0301	220
52.0503	225
52.0705	205
52.0907	202
52.1109	203
52.1311	192
52.1512	195
52.1714	199
52.1916	205
52.2118	180
52.232	170
52.2522	189
52.2724	176
52.2926	172
52.3128	162
52.333	162
52.3532	166
52.3734	191
52.3936	169
52.4138	171
52.434	172
52.4542	143
52.4744	159
52.4946	156
52.5148	139
52.535	160
52.5552	158
52.5754	155
52.5956	169
52.6158	170
52.636	145
52.6562	144
52.6764	130
52.6965	152
52.7167	147
52.7369	148
52.7571	151
52.7773	147
52.7975	145
52.8177	133
52.8379	121
52.8581	150
52.8783	155
52.8985	164
52.9187	148
52.9389	145
52.9591	129
52.9793	141
52.9995	132
53.0197	126
53.0399	122
53.0601	128
53.0803	145
53.1005	131
53.1207	126
53.1409	107
53.1611	110
53.1813	116
53.2015	130
53.2217	125
53.2419	121
53.262	120
53.2822	116
53.3024	100
53.3226	120
53.3428	129
53.363	117
53.3832	110
53.4034	105
53.4236	110
53.4438	111
53.464	134
53.4842	126
53.5044	107
53.5246	117
53.5448	134
53.565	127
53.5852	126
53.6054	86
53.6256	119
53.6458	116
53.666	108
53.6862	119
53.7064	142
53.7266	215
53.7468	350
53.767	546
53.7872	578
53.8073	411
53.8275	401
53.8477	497
53.8679	548
53.8881	371
53.9083	215
53.9285	153
53.9487	143
53.9689	132
53.9891	136
54.0093	132
54.0295	123
54.0497	135
54.0699	145
54.0901	145
54.1103	140
54.1305	147
54.1507	153
54.1709	144
54.1911	155
54.2113	131
54.2315	144
54.2517	134
54.2719	130
54.2921	152
54.3123	131
54.3325	131
54.3526	157
54.3728	146
54.393	165
54.4132	159
54.4334	164
54.4536	168
54.4738	165
54.494	168
54.5142	160
54.5344	181
54.5546	230
54.5748	406
54.595	667
54.6152	549
54.6354	457
54.6556	527
54.6758	757
54.696	753
54.7162	532
54.7364	499
54.7566	430
54.7768	329
54.797	325
54.8172	432
54.8374	443
54.8576	305
54.8778	206
54.898	187
54.9181	159
54.9383	172
54.9585	151
54.9787	129
54.9989	154
55.0191	140
55.0393	136
55.0595	158
55.0797	131
55.0999	130
55.1201	130
55.1403	114
55.1605	118
55.1807	125
55.2009	129
55.2211	116
55.2413	137
55.2615	143
55.2817	105
55.3019	127
55.3221	126
55.3423	144
55.3625	125
55.3827	126
55.4029	132
55.4231	134
55.4433	142
55.4634	130
55.4836	134
55.5038	116
55.524	136
55.5442	128
55.5644	147
55.5846	140
55.6048	138
55.625	154
55.6452	180
55.6654	170
55.6856	155
55.7058	151
55.726	177
55.7462	174
55.7664	174
55.7866	171
55.8068	157
55.827	144
55.8472	171
55.8674	151
55.8876	170
55.9078	164
55.928	154
55.9482	189
55.9684	159
55.9886	152
56.0087	141
56.0289	172
56.0491	180
56.0693	215
56.0895	183
56.1097	181
56.1299	200
56.1501	209
56.1703	178
56.1905	191
56.2107	230
56.2309	179
56.2511	206
56.2713	129
56.2915	154
56.3117	140
56.3319	136
56.3521	158
56.3723	131
56.3925	130
56.4127	130
56.4329	114
56.4531	118
56.4733	125
56.4935	129
56.5137	116
56.5339	137
56.5541	143
56.5742	105
56.5944	127
56.6146	126
56.6348	144
56.655	125
56.6752	126
56.6954	132
56.7156	134
56.7358	142
56.756	130
56.7762	134
56.7964	116
56.8166	136
56.8368	128
56.857	147
56.8772	140
56.8974	138
56.9176	154
56.9378	180
56.958	170
56.9782	155
56.9984	151
57.0186	177
57.0388	174
57.059	174
57.0792	171
57.0994	157
57.1195	144
57.1397	171
57.1599	151
57.1801	170
57.2003	164
57.2205	154
57.2407	189
57.2609	159
57.2811	152
57.3013	141
57.3215	172
57.3417	180
57.3619	215
57.3821	183
57.4023	181
57.4225	200
57.4427	209
57.4629	178
57.4831	191
57.5033	230
57.5235	259
57.5437	271
57.5639	296
57.5841	316
57.6043	293
57.6245	315
57.6447	267
57.6648	293
57.685	315
57.7052	267
57.7254	295
57.7456	315
57.7658	303
57.786	310
57.8062	267
57.8264	293
57.8466	315
57.8668	267
57.887	295
57.9072	315
57.9274	129
57.9476	154
57.9678	140
57.988	136
58.0082	158
58.0284	131
58.0486	130
58.0688	130
58.089	114
58.1092	118
58.1294	125
58.1496	129
58.1698	116
58.19	137
58.2102	143
58.2303	105
58.2505	127
58.2707	126
58.2909	144
58.3111	125
58.3313	126
58.3515	132
58.3717	134
58.3919	142
58.4121	130
58.4323	134
58.4525	116
58.4727	136
58.4929	128
58.5131	147
58.5333	140
58.5535	138
58.5737	154
58.5939	180
58.6141	170
58.6343	155
58.6545	151
58.6747	177
58.6949	174
58.7151	174
58.7353	171
58.7555	157
58.7756	144
58.7958	171
58.816	151
58.8362	170
58.8564	164
58.8766	154
58.8968	189
58.917	159
58.9372	152
58.9574	141
58.9776	172
58.9978	180
59.018	215
59.0382	183
59.0584	181
59.0786	200
59.0988	209
59.119	178
59.1392	191
59.1594	230
59.1796	726
59.1998	755
59.22	779
59.2402	788
59.2604	821
59.2806	799
59.3008	860
59.3209	894
59.3411	924
59.3613	917
59.3815	957
59.4017	950
59.4219	1003
59.4421	999
59.4623	1162
59.4825	1152
59.5027	1225
59.5229	1315
59.5431	1479
59.5633	1513
59.5835	1685
59.6037	1800
59.6239	1876
59.6441	2096
59.6643	2352
59.6845	2491
59.7047	2742
59.7249	2907
59.7451	3308
59.7653	3509
59.7855	3741
59.8057	4055
59.8259	4250
59.8461	4433
59.8663	4790
59.8864	5178
59.9066	6272
59.9268	7843
59.947	10741
59.9672	16633
59.9874	33307
60.0076	62654
60.0278	91077
60.048	94150
60.0682	56401
60.0884	32783
60.1086	16640
60.1288	9824
60.149	6935
60.1692	5505
60.1894	4650
60.2096	4164
60.2298	3697
60.25	3193
60.2702	2948
60.2904	2615
60.3106	2433
60.3308	2297
60.351	2253
60.3712	1963
60.3914	1808
60.4116	1723
60.4317	1516
60.4519	1487
60.4721	1390
60.4923	1322
60.5125	1304
60.5327	1244
60.5529	1175
60.5731	1160
60.5933	1194
60.6135	1020
60.6337	1111
60.6539	1072
60.6741	1029
60.6943	940
60.7145	985
60.7347	985
60.7549	889
60.7751	887
60.7953	947
60.8155	870
60.8357	844
60.8559	859
60.8761	824
60.8963	798
60.9165	850
60.9367	755
60.9569	769
60.977	768
60.9972	660
61.0174	733
61.0376	707
61.0578	708
61.078	675
61.0982	619
61.1184	653
61.1386	663
61.1588	644
61.179	628
61.1992	609
61.2194	564
61.2396	544
61.2598	555
61.28	566
61.3002	547
61.3204	530
61.3406	529
61.3608	526
61.381	544
61.4012	546
61.4214	559
61.4416	498
61.4618	511
61.482	502
61.5022	503
61.5223	499
61.5425	514
61.5627	482
61.5829	479
61.6031	511
61.6233	502
61.6435	503
61.6637	499
61.6839	514
61.7041	482
61.7243	479
61.7445	442
61.7647	439
61.7849	461
61.8051	462
61.8253	483
61.8455	458
61.8657	438
61.8859	451
61.9061	418
61.9263	459
61.9465	514
61.9667	482
61.9869	479
62.0071	442
62.0273	439
62.0475	461
62.0677	462
62.0878	483
62.108	458
62.1282	438
62.1484	451
62.1686	418
62.1888	459
62.209	296
62.2292	279
62.2494	283
62.2696	300
62.2898	276
62.31	259
62.3302	282
62.3504	239
62.3706	266
62.3908	251
62.411	266
62.4312	245
62.4514	230
62.4716	191
62.4918	203
62.512	214
62.5322	229
62.5524	225
62.5726	217
62.5928	250
62.613	223
62.6331	245
62.6533	231
62.6735	204
62.6937	210
62.7139	214
62.7341	175
62.7543	245
62.7745	230
62.7947	191
62.8149	203
62.8351	214
62.8553	229
62.8755	225
62.8957	217
62.9159	250
62.9361	223
62.9563	245
62.9765	231
62.9967	204
63.0169	210
63.0371	214
63.0573	175
63.0775	193
63.0977	220
63.1179	245
63.1381	263
63.1583	257
63.1784	251
63.1986	223
63.2188	265
63.239	239
63.2592	236
63.2794	229
63.2996	233
63.3198	233
63.34	226
63.3602	205
63.3804	241
63.4006	245
63.4208	230
63.441	191
63.4612	203
63.4814	214
63.5016	229
63.5218	225
63.542	217
63.5622	250
63.5824	223
63.6026	245
63.6228	231
63.643	204
63.6632	210
63.6834	214
63.7036	175
63.7238	193
63.7439	220
63.7641	181
63.7843	198
63.8045	188
63.8247	199
63.8449	195
63.8651	166
63.8853	183
63.9055	177
63.9257	176
63.9459	178
63.9661	146
63.9863	162
64.0065	182
64.0267	166
64.0469	173
64.0671	155
64.0873	165
64.1075	166
64.1277	176
64.1479	151
64.1681	155
64.1883	146
64.2085	151
64.2287	147
64.2489	143
64.2691	157
64.2892	134
64.3094	136
64.3296	158
64.3498	142
64.37	137
64.3902	137
64.4104	138
64.4306	162
64.4508	154
64.471	138
64.4912	142
64.5114	144
64.5316	154
64.5518	137
64.572	142
64.5922	153
64.6124	143
64.6326	150
64.6528	120
64.673	129
64.6932	144
64.7134	131
64.7336	122
64.7538	124
64.774	115
64.7942	132
64.8144	125
64.8345	123
64.8547	104
64.8749	124
64.8951	112
64.9153	97
64.9355	116
64.9557	121
64.9759	117
64.9961	135
65.0163	103
65.0365	143
65.0567	124
65.0769	119
65.0971	105
65.1173	123
65.1375	156
65.1577	131
65.1779	130
65.1981	140
65.2183	121
65.2385	121
65.2587	132
65.2789	120
65.2991	124
65.3193	139
65.3395	135
65.3597	131
65.3799	138
65.4	127
65.4202	127
65.4404	146
65.4606	162
65.4808	182
65.501	171
65.5212	182
65.5414	188
65.5616	176
65.5818	139
65.602	120
65.6222	144
65.6424	133
65.6626	135
65.6828	119
65.703	151
65.7232	156
65.7434	132
65.7636	123
65.7838	100
65.804	123
65.8242	118
65.8444	115
65.8646	109
65.8848	106
65.905	102
65.9252	108
65.9453	91
65.9655	85
65.9857	92
66.0059	110
66.0261	103
66.0463	109
66.0665	91
66.0867	101
66.1069	95
66.1271	107
66.1473	99
66.1675	90
66.1877	77
66.2079	83
66.2281	90
66.2483	85
66.2685	88
66.2887	81
66.3089	94
66.3291	97
66.3493	89
66.3695	81
66.3897	90
66.4099	70
66.4301	91
66.4503	76
66.4705	77
66.4906	84
66.5108	90
66.531	87
66.5512	94
66.5714	91
66.5916	89
66.6118	81
66.632	83
66.6522	92
66.6724	89
66.6926	103
66.7128	76
66.733	77
66.7532	86
66.7734	91
66.7936	90
66.8138	95
66.834	80
66.8542	74
66.8744	68
66.8946	85
66.9148	80
66.935	67
66.9552	64
66.9754	81
66.9956	86
67.0158	76
67.036	63
67.0561	71
67.0763	68
67.0965	77
67.1167	86
67.1369	81
67.1571	78
67.1773	84
67.1975	76
67.2177	80
67.2379	71
67.2581	93
67.2783	69
67.2985	72
67.3187	88
67.3389	86
67.3591	85
67.3793	76
67.3995	66
67.4197	88
67.4399	84
67.4601	85
67.4803	70
67.5005	75
67.5207	76
67.5409	87
67.5611	80
67.5813	74
67.6014	96
67.6216	70
67.6418	67
67.662	75
67.6822	83
67.7024	80
67.7226	81
67.7428	77
67.763	78
67.7832	82
67.8034	91
67.8236	95
67.8438	96
67.864	93
67.8842	92
67.9044	98
67.9246	86
67.9448	90
67.965	79
67.9852	89
68.0054	94
68.0256	107
68.0458	85
68.066	95
68.0862	92
68.1064	79
68.1266	96
68.1467	99
68.1669	75
68.1871	82
68.2073	86
68.2275	87
68.2477	84
68.2679	81
68.2881	98
68.3083	69
68.3285	81
68.3487	85
68.3689	87
68.3891	90
68.4093	95
68.4295	93
68.4497	80
68.4699	88
68.4901	85
68.5103	92
68.5305	94
68.5507	92
68.5709	91
68.5911	88
68.6113	99
68.6315	95
68.6517	103
68.6719	114
68.6921	115
68.7122	109
68.7324	118
68.7526	102
68.7728	103
68.793	89
68.8132	95
68.8334	114
68.8536	112
68.8738	119
68.894	100
68.9142	103
68.9344	125
68.9546	111
68.9748	92
68.995	115
69.0152	139
69.0354	104
69.0556	102
69.0758	114
69.096	126
69.1162	112
69.1364	141
69.1566	154
69.1768	135
69.197	160
69.2172	153
69.2374	147
69.2575	139
69.2777	126
69.2979	146
69.3181	118
69.3383	124
69.3585	143
69.3787	148
69.3989	158
69.4191	144
69.4393	130
69.4595	130
69.4797	120
69.4999	125
69.5201	109
69.5403	110
69.5605	104
69.5807	115
69.6009	104
69.6211	122
69.6413	102
69.6615	105
69.6817	110
69.7019	109
69.7221	113
69.7423	117
69.7625	106
69.7827	114
69.8028	100
69.823	129
69.8432	121
69.8634	131
69.8836	134
69.9038	124
69.924	123
69.9442	132
69.9644	128
69.9846	140
70.0048	118
70.025	145
70.0452	124
70.0654	124
70.0856	145
70.1058	161
70.126	113
70.1462	128
70.1664	125
70.1866	127
70.2068	139
70.227	122
70.2472	135
70.2674	141
70.2876	147
70.3078	127
70.328	148
70.3481	118
70.3683	151
70.3885	138
70.4087	139
70.4289	152
70.4491	151
70.4693	144
70.4895	161
70.5097	170
70.5299	157
70.5501	180
70.5703	160
70.5905	151
70.6107	175
70.6309	194
70.6511	201
70.6713	200
70.6915	215
70.7117	222
70.7319	228
70.7521	237
70.7723	287
70.7925	263
70.8127	317
70.8329	342
70.8531	344
70.8733	364
70.8935	344
70.9136	364
70.9338	367
70.954	352
70.9742	380
70.9944	418
71.0146	461
71.0348	480
71.055	557
71.0752	675
71.0954	822
71.1156	1226
71.1358	1984
71.156	4201
71.1762	6941
71.1964	7493
71.2166	10048
71.2368	7576
71.257	3948
71.2772	2194
71.2974	1239
71.3176	823
71.3378	625
71.358	572
71.3782	429
71.3984	395
71.4186	375
71.4388	336
71.4589	298
71.4791	257
71.4993	268
71.5195	263
71.5397	237
71.5599	251
71.5801	220
71.6003	227
71.6205	207
71.6407	200
71.6609	213
71.6811	210
71.7013	234
71.7215	197
71.7417	208
71.7619	201
71.7821	232
71.8023	198
71.8225	198
71.8427	180
71.8629	192
71.8831	187
71.9033	174
71.9235	194
71.9437	185
71.9639	168
71.9841	170
72.0042	175
72.0244	180
72.0446	192
72.0648	187
72.085	174
72.1052	194
72.1254	185
72.1456	168
72.1658	170
72.186	175
72.2062	154
72.2264	157
72.2466	147
72.2668	130
72.287	138
72.3072	148
72.3274	143
72.3476	148
72.3678	115
72.388	135
72.4082	146
72.4284	109
72.4486	157
72.4688	140
72.489	129
72.5092	124
72.5294	128
72.5496	135
72.5697	119
72.5899	124
72.6101	129
72.6303	146
72.6505	163
72.6707	132
72.6909	135
72.7111	135
72.7313	143
72.7515	153
72.7717	169
72.7919	143
72.8121	140
72.8323	145
72.8525	133
72.8727	128
72.8929	140
72.9131	146
72.9333	138
72.9535	140
72.9737	142
72.9939	141
73.0141	131
73.0343	100
73.0545	111
73.0747	113
73.0949	112
73.115	110
73.1352	100
73.1554	104
73.1756	95
73.1958	111
73.216	108
73.2362	104
73.2564	117
73.2766	90
73.2968	114
73.317	110
73.3372	94
73.3574	94
73.3776	96
73.3978	101
73.418	113
73.4382	90
73.4584	106
73.4786	116
73.4988	96
73.519	104
73.5392	106
73.5594	96
73.5796	121
73.5998	107
73.62	103
73.6402	92
73.6603	97
73.6805	94
73.7007	87
73.7209	96
73.7411	106
73.7613	116
73.7815	112
73.8017	117
73.8219	96
73.8421	124
73.8623	128
73.8825	146
73.9027	125
73.9229	122
73.9431	99
73.9633	102
73.9835	102
74.0037	109
74.0239	110
74.0441	103
74.0643	97
74.0845	91
74.1047	109
74.1249	94
74.1451	89
74.1653	92
74.1855	85
74.2057	118
74.2258	92
74.246	89
74.2662	105
74.2864	118
74.3066	106
74.3268	136
74.347	126
74.3672	144
74.3874	180
74.4076	182
74.4278	188
74.448	221
74.4682	251
74.4884	250
74.5086	244
74.5288	224
74.549	171
74.5692	175
74.5894	164
74.6096	174
74.6298	165
74.65	178
74.6702	190
74.6904	194
74.7106	222
74.7308	203
74.751	186
74.7711	153
74.7913	126
74.8115	130
74.8317	106
74.8519	127
74.8721	98
74.8923	107
74.9125	112
74.9327	107
74.9529	105
74.9731	111
74.9933	98
75.0135	98
75.0337	92
75.0539	110
75.0741	95
75.0943	112
75.1145	89
75.1347	102
75.1549	93
75.1751	123
75.1953	82
75.2155	83
75.2357	86
75.2559	91
75.2761	88
75.2963	91
75.3164	90
75.3366	85
75.3568	77
75.377	98
75.3972	97
75.4174	89
75.4376	89
75.4578	81
75.478	84
75.4982	79
75.5184	86
75.5386	87
75.5588	74
75.579	67
75.5992	73
75.6194	55
75.6396	70
75.6598	101
75.68	68
75.7002	81
75.7204	79
75.7406	85
75.7608	72
75.781	73
75.8012	63
75.8214	77
75.8416	77
75.8618	75
75.8819	94
75.9021	81
75.9223	74
75.9425	102
75.9627	76
75.9829	84
76.0031	77
76.0233	74
76.0435	74
76.0637	68
76.0839	76
76.1041	75
76.1243	88
76.1445	75
76.1647	63
76.1849	84
76.2051	95
76.2253	85
76.2455	90
76.2657	83
76.2859	78
76.3061	67
76.3263	88
76.3465	83
76.3667	71
76.3869	83
76.4071	78
76.4272	79
76.4474	72
76.4676	68
76.4878	80
76.508	90
76.5282	86
76.5484	73
76.5686	79
76.5888	76
76.609	65
76.6292	79
76.6494	79
76.6696	76
76.6898	69
76.71	88
76.7302	88
76.7504	93
76.7706	74
76.7908	73
76.811	89
76.8312	74
76.8514	92
76.8716	75
76.8918	69
76.912	92
76.9322	90
76.9524	90
76.9725	107
76.9927	139
77.0129	157
77.0331	180
77.0533	164
77.0735	191
77.0937	220
77.1139	198
77.1341	153
77.1543	109
77.1745	120
77.1947	119
77.2149	93
77.2351	134
77.2553	128
77.2755	129
77.2957	149
77.3159	151
77.3361	149
77.3563	142
77.3765	100
77.3967	90
77.4169	86
77.4371	98
77.4573	96
77.4775	91
77.4977	90
77.5179	84
77.538	87
77.5582	88
77.5784	84
77.5986	102
77.6188	83
77.639	95
77.6592	88
77.6794	96
77.6996	76
77.7198	77
77.74	89
77.7602	88
77.7804	87
77.8006	94
77.8208	74
77.841	91
77.8612	109
77.8814	96
77.9016	87
77.9218	91
77.942	84
77.9622	106
77.9824	96
78.0026	96
78.0228	115
78.043	104
78.0632	106
78.0833	105
78.1035	98
78.1237	104
78.1439	113
78.1641	117
78.1843	114
78.2045	112
78.2247	128
78.2449	104
78.2651	101
78.2853	97
78.3055	107
78.3257	118
78.3459	101
78.3661	104
78.3863	111
78.4065	114
78.4267	121
78.4469	129
78.4671	105
78.4873	106
78.5075	131
78.5277	127
78.5479	96
78.5681	97
78.5883	114
78.6085	113
78.6286	98
78.6488	117
78.669	103
78.6892	99
78.7094	105
78.7296	102
78.7498	103
78.77	110
78.7902	93
78.8104	115
78.8306	96
78.8508	103
78.871	106
78.8912	74
78.9114	86
78.9316	95
78.9518	99
78.972	97
78.9922	86
79.0124	79
79.0326	96
79.0528	78
79.073	96
79.0932	94
79.1134	81
79.1336	94
79.1538	96
79.174	114
79.1941	97
79.2143	88
79.2345	97
79.2547	90
79.2749	76
79.2951	98
79.3153	88
79.3355	96
79.3557	101
79.3759	99
79.3961	93
79.4163	96
79.4365	104
79.4567	105
79.4769	112
79.4971	104
79.5173	96
79.5375	111
79.5577	85
79.5779	90
79.5981	80
79.6183	104
79.6385	105
79.6587	103
79.6789	96
79.6991	99
79.7193	110
79.7394	107
79.7596	114
79.7798	91
79.8	97
79.8202	91
79.8404	114
79.8606	91
79.8808	117
79.901	96
79.9212	117
79.9414	112
79.9616	102
79.9818	96
80.002	115